# Neutrino-40Ar neutral current cross section (10^-38 cm^2/GeV) #
# log(energy in GeV)  nu_e      nu_mu      nu_tau      nu_e_bar      nu_mu_bar    nu_tau_bar #

-2.008774  6.156993e-08  6.156993e-08  6.156993e-08  6.156993e-08  6.156993e-08  6.156993e-08
-2.007464  1.751675e-07  1.751675e-07  1.751675e-07  1.751675e-07  1.751675e-07  1.751675e-07
-2.006154  3.464974e-07  3.464974e-07  3.464974e-07  3.464974e-07  3.464974e-07  3.464974e-07
-2.004845  5.757501e-07  5.757501e-07  5.757501e-07  5.757501e-07  5.757501e-07  5.757501e-07
-2.003535  8.629274e-07  8.629274e-07  8.629274e-07  8.629274e-07  8.629274e-07  8.629274e-07
-2.002225  1.208032e-06  1.208032e-06  1.208032e-06  1.208032e-06  1.208032e-06  1.208032e-06
-2.000915  1.611067e-06  1.611067e-06  1.611067e-06  1.611067e-06  1.611067e-06  1.611067e-06
-1.999605  2.072037e-06  2.072037e-06  2.072037e-06  2.072037e-06  2.072037e-06  2.072037e-06
-1.998295  2.590944e-06  2.590944e-06  2.590944e-06  2.590944e-06  2.590944e-06  2.590944e-06
-1.996986  3.167795e-06  3.167795e-06  3.167795e-06  3.167795e-06  3.167795e-06  3.167795e-06
-1.995676  3.802594e-06  3.802594e-06  3.802594e-06  3.802594e-06  3.802594e-06  3.802594e-06
-1.994366  4.495347e-06  4.495347e-06  4.495347e-06  4.495347e-06  4.495347e-06  4.495347e-06
-1.993056  5.246061e-06  5.246061e-06  5.246061e-06  5.246061e-06  5.246061e-06  5.246061e-06
-1.991746  6.054741e-06  6.054741e-06  6.054741e-06  6.054741e-06  6.054741e-06  6.054741e-06
-1.990437  6.921397e-06  6.921397e-06  6.921397e-06  6.921397e-06  6.921397e-06  6.921397e-06
-1.989127  7.846034e-06  7.846034e-06  7.846034e-06  7.846034e-06  7.846034e-06  7.846034e-06
-1.987817  8.828663e-06  8.828663e-06  8.828663e-06  8.828663e-06  8.828663e-06  8.828663e-06
-1.986507  9.869291e-06  9.869291e-06  9.869291e-06  9.869291e-06  9.869291e-06  9.869291e-06
-1.985197  1.096793e-05  1.096793e-05  1.096793e-05  1.096793e-05  1.096793e-05  1.096793e-05
-1.983888  1.212459e-05  1.212459e-05  1.212459e-05  1.212459e-05  1.212459e-05  1.212459e-05
-1.982578  1.333927e-05  1.333927e-05  1.333927e-05  1.333927e-05  1.333927e-05  1.333927e-05
-1.981268  1.461200e-05  1.461200e-05  1.461200e-05  1.461200e-05  1.461200e-05  1.461200e-05
-1.979958  1.594278e-05  1.594278e-05  1.594278e-05  1.594278e-05  1.594278e-05  1.594278e-05
-1.978648  1.733162e-05  1.733162e-05  1.733162e-05  1.733162e-05  1.733162e-05  1.733162e-05
-1.977339  1.877855e-05  1.877855e-05  1.877855e-05  1.877855e-05  1.877855e-05  1.877855e-05
-1.976029  2.028356e-05  2.028356e-05  2.028356e-05  2.028356e-05  2.028356e-05  2.028356e-05
-1.974719  2.184667e-05  2.184667e-05  2.184667e-05  2.184667e-05  2.184667e-05  2.184667e-05
-1.973409  2.346791e-05  2.346791e-05  2.346791e-05  2.346791e-05  2.346791e-05  2.346791e-05
-1.972099  2.514727e-05  2.514727e-05  2.514727e-05  2.514727e-05  2.514727e-05  2.514727e-05
-1.970790  2.688479e-05  2.688479e-05  2.688479e-05  2.688479e-05  2.688479e-05  2.688479e-05
-1.969480  2.868047e-05  2.868047e-05  2.868047e-05  2.868047e-05  2.868047e-05  2.868047e-05
-1.968170  3.053433e-05  3.053433e-05  3.053433e-05  3.053433e-05  3.053433e-05  3.053433e-05
-1.966860  3.244639e-05  3.244639e-05  3.244639e-05  3.244639e-05  3.244639e-05  3.244639e-05
-1.965550  3.441666e-05  3.441666e-05  3.441666e-05  3.441666e-05  3.441666e-05  3.441666e-05
-1.964241  3.644516e-05  3.644516e-05  3.644516e-05  3.644516e-05  3.644516e-05  3.644516e-05
-1.962931  3.853192e-05  3.853192e-05  3.853192e-05  3.853192e-05  3.853192e-05  3.853192e-05
-1.961621  4.067694e-05  4.067694e-05  4.067694e-05  4.067694e-05  4.067694e-05  4.067694e-05
-1.960311  4.288026e-05  4.288026e-05  4.288026e-05  4.288026e-05  4.288026e-05  4.288026e-05
-1.959001  4.514188e-05  4.514188e-05  4.514188e-05  4.514188e-05  4.514188e-05  4.514188e-05
-1.957692  4.746183e-05  4.746183e-05  4.746183e-05  4.746183e-05  4.746183e-05  4.746183e-05
-1.956382  4.984014e-05  4.984014e-05  4.984014e-05  4.984014e-05  4.984014e-05  4.984014e-05
-1.955072  5.227682e-05  5.227682e-05  5.227682e-05  5.227682e-05  5.227682e-05  5.227682e-05
-1.953762  5.477189e-05  5.477189e-05  5.477189e-05  5.477189e-05  5.477189e-05  5.477189e-05
-1.952452  5.732538e-05  5.732538e-05  5.732538e-05  5.732538e-05  5.732538e-05  5.732538e-05
-1.951143  5.993731e-05  5.993731e-05  5.993731e-05  5.993731e-05  5.993731e-05  5.993731e-05
-1.949833  6.260771e-05  6.260771e-05  6.260771e-05  6.260771e-05  6.260771e-05  6.260771e-05
-1.948523  6.533659e-05  6.533659e-05  6.533659e-05  6.533659e-05  6.533659e-05  6.533659e-05
-1.947213  6.812399e-05  6.812399e-05  6.812399e-05  6.812399e-05  6.812399e-05  6.812399e-05
-1.945903  7.096993e-05  7.096993e-05  7.096993e-05  7.096993e-05  7.096993e-05  7.096993e-05
-1.944594  7.387443e-05  7.387443e-05  7.387443e-05  7.387443e-05  7.387443e-05  7.387443e-05
-1.943284  7.683753e-05  7.683753e-05  7.683753e-05  7.683753e-05  7.683753e-05  7.683753e-05
-1.941974  7.985924e-05  7.985924e-05  7.985924e-05  7.985924e-05  7.985924e-05  7.985924e-05
-1.940664  8.293960e-05  8.293960e-05  8.293960e-05  8.293960e-05  8.293960e-05  8.293960e-05
-1.939354  8.607863e-05  8.607863e-05  8.607863e-05  8.607863e-05  8.607863e-05  8.607863e-05
-1.938045  8.927637e-05  8.927637e-05  8.927637e-05  8.927637e-05  8.927637e-05  8.927637e-05
-1.936735  9.253284e-05  9.253284e-05  9.253284e-05  9.253284e-05  9.253284e-05  9.253284e-05
-1.935425  9.584807e-05  9.584807e-05  9.584807e-05  9.584807e-05  9.584807e-05  9.584807e-05
-1.934115  9.922208e-05  9.922208e-05  9.922208e-05  9.922208e-05  9.922208e-05  9.922208e-05
-1.932805  1.026549e-04  1.026549e-04  1.026549e-04  1.026549e-04  1.026549e-04  1.026549e-04
-1.931495  1.061466e-04  1.061466e-04  1.061466e-04  1.061466e-04  1.061466e-04  1.061466e-04
-1.930186  1.096972e-04  1.096972e-04  1.096972e-04  1.096972e-04  1.096972e-04  1.096972e-04
-1.928876  1.133067e-04  1.133067e-04  1.133067e-04  1.133067e-04  1.133067e-04  1.133067e-04
-1.927566  1.169751e-04  1.169751e-04  1.169751e-04  1.169751e-04  1.169751e-04  1.169751e-04
-1.926256  1.207026e-04  1.207026e-04  1.207026e-04  1.207026e-04  1.207026e-04  1.207026e-04
-1.924946  1.244890e-04  1.244890e-04  1.244890e-04  1.244890e-04  1.244890e-04  1.244890e-04
-1.923637  1.283345e-04  1.283345e-04  1.283345e-04  1.283345e-04  1.283345e-04  1.283345e-04
-1.922327  1.322391e-04  1.322391e-04  1.322391e-04  1.322391e-04  1.322391e-04  1.322391e-04
-1.921017  1.362028e-04  1.362028e-04  1.362028e-04  1.362028e-04  1.362028e-04  1.362028e-04
-1.919707  1.402257e-04  1.402257e-04  1.402257e-04  1.402257e-04  1.402257e-04  1.402257e-04
-1.918397  1.443077e-04  1.443077e-04  1.443077e-04  1.443077e-04  1.443077e-04  1.443077e-04
-1.917088  1.484490e-04  1.484490e-04  1.484490e-04  1.484490e-04  1.484490e-04  1.484490e-04
-1.915778  1.526496e-04  1.526496e-04  1.526496e-04  1.526496e-04  1.526496e-04  1.526496e-04
-1.914468  1.569095e-04  1.569095e-04  1.569095e-04  1.569095e-04  1.569095e-04  1.569095e-04
-1.913158  1.612287e-04  1.612287e-04  1.612287e-04  1.612287e-04  1.612287e-04  1.612287e-04
-1.911848  1.656073e-04  1.656073e-04  1.656073e-04  1.656073e-04  1.656073e-04  1.656073e-04
-1.910539  1.700453e-04  1.700453e-04  1.700453e-04  1.700453e-04  1.700453e-04  1.700453e-04
-1.909229  1.745428e-04  1.745428e-04  1.745428e-04  1.745428e-04  1.745428e-04  1.745428e-04
-1.907919  1.790998e-04  1.790998e-04  1.790998e-04  1.790998e-04  1.790998e-04  1.790998e-04
-1.906609  1.837164e-04  1.837164e-04  1.837164e-04  1.837164e-04  1.837164e-04  1.837164e-04
-1.905299  1.883925e-04  1.883925e-04  1.883925e-04  1.883925e-04  1.883925e-04  1.883925e-04
-1.903990  1.931283e-04  1.931283e-04  1.931283e-04  1.931283e-04  1.931283e-04  1.931283e-04
-1.902680  1.979238e-04  1.979238e-04  1.979238e-04  1.979238e-04  1.979238e-04  1.979238e-04
-1.901370  2.027789e-04  2.027789e-04  2.027789e-04  2.027789e-04  2.027789e-04  2.027789e-04
-1.900060  2.076939e-04  2.076939e-04  2.076939e-04  2.076939e-04  2.076939e-04  2.076939e-04
-1.898750  2.126686e-04  2.126686e-04  2.126686e-04  2.126686e-04  2.126686e-04  2.126686e-04
-1.897441  2.177032e-04  2.177032e-04  2.177032e-04  2.177032e-04  2.177032e-04  2.177032e-04
-1.896131  2.227977e-04  2.227977e-04  2.227977e-04  2.227977e-04  2.227977e-04  2.227977e-04
-1.894821  2.279522e-04  2.279522e-04  2.279522e-04  2.279522e-04  2.279522e-04  2.279522e-04
-1.893511  2.331666e-04  2.331666e-04  2.331666e-04  2.331666e-04  2.331666e-04  2.331666e-04
-1.892201  2.384411e-04  2.384411e-04  2.384411e-04  2.384411e-04  2.384411e-04  2.384411e-04
-1.890892  2.437756e-04  2.437756e-04  2.437756e-04  2.437756e-04  2.437756e-04  2.437756e-04
-1.889582  2.491703e-04  2.491703e-04  2.491703e-04  2.491703e-04  2.491703e-04  2.491703e-04
-1.888272  2.546252e-04  2.546252e-04  2.546252e-04  2.546252e-04  2.546252e-04  2.546252e-04
-1.886962  2.601403e-04  2.601403e-04  2.601403e-04  2.601403e-04  2.601403e-04  2.601403e-04
-1.885652  2.657158e-04  2.657158e-04  2.657158e-04  2.657158e-04  2.657158e-04  2.657158e-04
-1.884343  2.713515e-04  2.713515e-04  2.713515e-04  2.713515e-04  2.713515e-04  2.713515e-04
-1.883033  2.770476e-04  2.770476e-04  2.770476e-04  2.770476e-04  2.770476e-04  2.770476e-04
-1.881723  2.828042e-04  2.828042e-04  2.828042e-04  2.828042e-04  2.828042e-04  2.828042e-04
-1.880413  2.886213e-04  2.886213e-04  2.886213e-04  2.886213e-04  2.886213e-04  2.886213e-04
-1.879103  2.944989e-04  2.944989e-04  2.944989e-04  2.944989e-04  2.944989e-04  2.944989e-04
-1.877794  3.004371e-04  3.004371e-04  3.004371e-04  3.004371e-04  3.004371e-04  3.004371e-04
-1.876484  3.064360e-04  3.064360e-04  3.064360e-04  3.064360e-04  3.064360e-04  3.064360e-04
-1.875174  3.124955e-04  3.124955e-04  3.124955e-04  3.124955e-04  3.124955e-04  3.124955e-04
-1.873864  3.186159e-04  3.186159e-04  3.186159e-04  3.186159e-04  3.186159e-04  3.186159e-04
-1.872554  3.247970e-04  3.247970e-04  3.247970e-04  3.247970e-04  3.247970e-04  3.247970e-04
-1.871245  3.310390e-04  3.310390e-04  3.310390e-04  3.310390e-04  3.310390e-04  3.310390e-04
-1.869935  3.373420e-04  3.373420e-04  3.373420e-04  3.373420e-04  3.373420e-04  3.373420e-04
-1.868625  3.437059e-04  3.437059e-04  3.437059e-04  3.437059e-04  3.437059e-04  3.437059e-04
-1.867315  3.501309e-04  3.501309e-04  3.501309e-04  3.501309e-04  3.501309e-04  3.501309e-04
-1.866005  3.566170e-04  3.566170e-04  3.566170e-04  3.566170e-04  3.566170e-04  3.566170e-04
-1.864695  3.631642e-04  3.631642e-04  3.631642e-04  3.631642e-04  3.631642e-04  3.631642e-04
-1.863386  3.697727e-04  3.697727e-04  3.697727e-04  3.697727e-04  3.697727e-04  3.697727e-04
-1.862076  3.764425e-04  3.764425e-04  3.764425e-04  3.764425e-04  3.764425e-04  3.764425e-04
-1.860766  3.831736e-04  3.831736e-04  3.831736e-04  3.831736e-04  3.831736e-04  3.831736e-04
-1.859456  3.899661e-04  3.899661e-04  3.899661e-04  3.899661e-04  3.899661e-04  3.899661e-04
-1.858146  3.968200e-04  3.968200e-04  3.968200e-04  3.968200e-04  3.968200e-04  3.968200e-04
-1.856837  4.037356e-04  4.037356e-04  4.037356e-04  4.037356e-04  4.037356e-04  4.037356e-04
-1.855527  4.107126e-04  4.107126e-04  4.107126e-04  4.107126e-04  4.107126e-04  4.107126e-04
-1.854217  4.177514e-04  4.177514e-04  4.177514e-04  4.177514e-04  4.177514e-04  4.177514e-04
-1.852907  4.248519e-04  4.248519e-04  4.248519e-04  4.248519e-04  4.248519e-04  4.248519e-04
-1.851597  4.320141e-04  4.320141e-04  4.320141e-04  4.320141e-04  4.320141e-04  4.320141e-04
-1.850288  4.392382e-04  4.392382e-04  4.392382e-04  4.392382e-04  4.392382e-04  4.392382e-04
-1.848978  4.465242e-04  4.465242e-04  4.465242e-04  4.465242e-04  4.465242e-04  4.465242e-04
-1.847668  4.538722e-04  4.538722e-04  4.538722e-04  4.538722e-04  4.538722e-04  4.538722e-04
-1.846358  4.612823e-04  4.612823e-04  4.612823e-04  4.612823e-04  4.612823e-04  4.612823e-04
-1.845048  4.687544e-04  4.687544e-04  4.687544e-04  4.687544e-04  4.687544e-04  4.687544e-04
-1.843739  4.762888e-04  4.762888e-04  4.762888e-04  4.762888e-04  4.762888e-04  4.762888e-04
-1.842429  4.838854e-04  4.838854e-04  4.838854e-04  4.838854e-04  4.838854e-04  4.838854e-04
-1.841119  4.915443e-04  4.915443e-04  4.915443e-04  4.915443e-04  4.915443e-04  4.915443e-04
-1.839809  4.992656e-04  4.992656e-04  4.992656e-04  4.992656e-04  4.992656e-04  4.992656e-04
-1.838499  5.070494e-04  5.070494e-04  5.070494e-04  5.070494e-04  5.070494e-04  5.070494e-04
-1.837190  5.148957e-04  5.148957e-04  5.148957e-04  5.148957e-04  5.148957e-04  5.148957e-04
-1.835880  5.228046e-04  5.228046e-04  5.228046e-04  5.228046e-04  5.228046e-04  5.228046e-04
-1.834570  5.307761e-04  5.307761e-04  5.307761e-04  5.307761e-04  5.307761e-04  5.307761e-04
-1.833260  5.388105e-04  5.388105e-04  5.388105e-04  5.388105e-04  5.388105e-04  5.388105e-04
-1.831950  5.469076e-04  5.469076e-04  5.469076e-04  5.469076e-04  5.469076e-04  5.469076e-04
-1.830641  5.550676e-04  5.550676e-04  5.550676e-04  5.550676e-04  5.550676e-04  5.550676e-04
-1.829331  5.632907e-04  5.632907e-04  5.632907e-04  5.632907e-04  5.632907e-04  5.632907e-04
-1.828021  5.715767e-04  5.715767e-04  5.715767e-04  5.715767e-04  5.715767e-04  5.715767e-04
-1.826711  5.799259e-04  5.799259e-04  5.799259e-04  5.799259e-04  5.799259e-04  5.799259e-04
-1.825401  5.883382e-04  5.883382e-04  5.883382e-04  5.883382e-04  5.883382e-04  5.883382e-04
-1.824092  5.968139e-04  5.968139e-04  5.968139e-04  5.968139e-04  5.968139e-04  5.968139e-04
-1.822782  6.053528e-04  6.053528e-04  6.053528e-04  6.053528e-04  6.053528e-04  6.053528e-04
-1.821472  6.139553e-04  6.139553e-04  6.139553e-04  6.139553e-04  6.139553e-04  6.139553e-04
-1.820162  6.226212e-04  6.226212e-04  6.226212e-04  6.226212e-04  6.226212e-04  6.226212e-04
-1.818852  6.313507e-04  6.313507e-04  6.313507e-04  6.313507e-04  6.313507e-04  6.313507e-04
-1.817543  6.401438e-04  6.401438e-04  6.401438e-04  6.401438e-04  6.401438e-04  6.401438e-04
-1.816233  6.490007e-04  6.490007e-04  6.490007e-04  6.490007e-04  6.490007e-04  6.490007e-04
-1.814923  6.579214e-04  6.579214e-04  6.579214e-04  6.579214e-04  6.579214e-04  6.579214e-04
-1.813613  6.669061e-04  6.669061e-04  6.669061e-04  6.669061e-04  6.669061e-04  6.669061e-04
-1.812303  6.759547e-04  6.759547e-04  6.759547e-04  6.759547e-04  6.759547e-04  6.759547e-04
-1.810994  6.850673e-04  6.850673e-04  6.850673e-04  6.850673e-04  6.850673e-04  6.850673e-04
-1.809684  6.942442e-04  6.942442e-04  6.942442e-04  6.942442e-04  6.942442e-04  6.942442e-04
-1.808374  7.034852e-04  7.034852e-04  7.034852e-04  7.034852e-04  7.034852e-04  7.034852e-04
-1.807064  7.127906e-04  7.127906e-04  7.127906e-04  7.127906e-04  7.127906e-04  7.127906e-04
-1.805754  7.221604e-04  7.221604e-04  7.221604e-04  7.221604e-04  7.221604e-04  7.221604e-04
-1.804445  7.315947e-04  7.315947e-04  7.315947e-04  7.315947e-04  7.315947e-04  7.315947e-04
-1.803135  7.410935e-04  7.410935e-04  7.410935e-04  7.410935e-04  7.410935e-04  7.410935e-04
-1.801825  7.506570e-04  7.506570e-04  7.506570e-04  7.506570e-04  7.506570e-04  7.506570e-04
-1.800515  7.602853e-04  7.602853e-04  7.602853e-04  7.602853e-04  7.602853e-04  7.602853e-04
-1.799205  7.699784e-04  7.699784e-04  7.699784e-04  7.699784e-04  7.699784e-04  7.699784e-04
-1.797895  7.797364e-04  7.797364e-04  7.797364e-04  7.797364e-04  7.797364e-04  7.797364e-04
-1.796586  7.895594e-04  7.895594e-04  7.895594e-04  7.895594e-04  7.895594e-04  7.895594e-04
-1.795276  7.994475e-04  7.994475e-04  7.994475e-04  7.994475e-04  7.994475e-04  7.994475e-04
-1.793966  8.094009e-04  8.094009e-04  8.094009e-04  8.094009e-04  8.094009e-04  8.094009e-04
-1.792656  8.194195e-04  8.194195e-04  8.194195e-04  8.194195e-04  8.194195e-04  8.194195e-04
-1.791346  8.295034e-04  8.295034e-04  8.295034e-04  8.295034e-04  8.295034e-04  8.295034e-04
-1.790037  8.396529e-04  8.396529e-04  8.396529e-04  8.396529e-04  8.396529e-04  8.396529e-04
-1.788727  8.498679e-04  8.498679e-04  8.498679e-04  8.498679e-04  8.498679e-04  8.498679e-04
-1.787417  8.601485e-04  8.601485e-04  8.601485e-04  8.601485e-04  8.601485e-04  8.601485e-04
-1.786107  8.704949e-04  8.704949e-04  8.704949e-04  8.704949e-04  8.704949e-04  8.704949e-04
-1.784797  8.809071e-04  8.809071e-04  8.809071e-04  8.809071e-04  8.809071e-04  8.809071e-04
-1.783488  8.913853e-04  8.913853e-04  8.913853e-04  8.913853e-04  8.913853e-04  8.913853e-04
-1.782178  9.019295e-04  9.019295e-04  9.019295e-04  9.019295e-04  9.019295e-04  9.019295e-04
-1.780868  9.125398e-04  9.125398e-04  9.125398e-04  9.125398e-04  9.125398e-04  9.125398e-04
-1.779558  9.232163e-04  9.232163e-04  9.232163e-04  9.232163e-04  9.232163e-04  9.232163e-04
-1.778248  9.339591e-04  9.339591e-04  9.339591e-04  9.339591e-04  9.339591e-04  9.339591e-04
-1.776939  9.447684e-04  9.447684e-04  9.447684e-04  9.447684e-04  9.447684e-04  9.447684e-04
-1.775629  9.556442e-04  9.556442e-04  9.556442e-04  9.556442e-04  9.556442e-04  9.556442e-04
-1.774319  9.665865e-04  9.665865e-04  9.665865e-04  9.665865e-04  9.665865e-04  9.665865e-04
-1.773009  9.775956e-04  9.775956e-04  9.775956e-04  9.775956e-04  9.775956e-04  9.775956e-04
-1.771699  9.886715e-04  9.886715e-04  9.886715e-04  9.886715e-04  9.886715e-04  9.886715e-04
-1.770390  9.998144e-04  9.998144e-04  9.998144e-04  9.998144e-04  9.998144e-04  9.998144e-04
-1.769080  1.011024e-03  1.011024e-03  1.011024e-03  1.011024e-03  1.011024e-03  1.011024e-03
-1.767770  1.022301e-03  1.022301e-03  1.022301e-03  1.022301e-03  1.022301e-03  1.022301e-03
-1.766460  1.033645e-03  1.033645e-03  1.033645e-03  1.033645e-03  1.033645e-03  1.033645e-03
-1.765150  1.045057e-03  1.045057e-03  1.045057e-03  1.045057e-03  1.045057e-03  1.045057e-03
-1.763841  1.056536e-03  1.056536e-03  1.056536e-03  1.056536e-03  1.056536e-03  1.056536e-03
-1.762531  1.068082e-03  1.068082e-03  1.068082e-03  1.068082e-03  1.068082e-03  1.068082e-03
-1.761221  1.079696e-03  1.079696e-03  1.079696e-03  1.079696e-03  1.079696e-03  1.079696e-03
-1.759911  1.091378e-03  1.091378e-03  1.091378e-03  1.091378e-03  1.091378e-03  1.091378e-03
-1.758601  1.103128e-03  1.103128e-03  1.103128e-03  1.103128e-03  1.103128e-03  1.103128e-03
-1.757292  1.114945e-03  1.114945e-03  1.114945e-03  1.114945e-03  1.114945e-03  1.114945e-03
-1.755982  1.126831e-03  1.126831e-03  1.126831e-03  1.126831e-03  1.126831e-03  1.126831e-03
-1.754672  1.138785e-03  1.138785e-03  1.138785e-03  1.138785e-03  1.138785e-03  1.138785e-03
-1.753362  1.150807e-03  1.150807e-03  1.150807e-03  1.150807e-03  1.150807e-03  1.150807e-03
-1.752052  1.162897e-03  1.162897e-03  1.162897e-03  1.162897e-03  1.162897e-03  1.162897e-03
-1.750743  1.175056e-03  1.175056e-03  1.175056e-03  1.175056e-03  1.175056e-03  1.175056e-03
-1.749433  1.187284e-03  1.187284e-03  1.187284e-03  1.187284e-03  1.187284e-03  1.187284e-03
-1.748123  1.199580e-03  1.199580e-03  1.199580e-03  1.199580e-03  1.199580e-03  1.199580e-03
-1.746813  1.211946e-03  1.211946e-03  1.211946e-03  1.211946e-03  1.211946e-03  1.211946e-03
-1.745503  1.224380e-03  1.224380e-03  1.224380e-03  1.224380e-03  1.224380e-03  1.224380e-03
-1.744194  1.236883e-03  1.236883e-03  1.236883e-03  1.236883e-03  1.236883e-03  1.236883e-03
-1.742884  1.249455e-03  1.249455e-03  1.249455e-03  1.249455e-03  1.249455e-03  1.249455e-03
-1.741574  1.262097e-03  1.262097e-03  1.262097e-03  1.262097e-03  1.262097e-03  1.262097e-03
-1.740264  1.274808e-03  1.274808e-03  1.274808e-03  1.274808e-03  1.274808e-03  1.274808e-03
-1.738954  1.287588e-03  1.287588e-03  1.287588e-03  1.287588e-03  1.287588e-03  1.287588e-03
-1.737645  1.300439e-03  1.300439e-03  1.300439e-03  1.300439e-03  1.300439e-03  1.300439e-03
-1.736335  1.313358e-03  1.313358e-03  1.313358e-03  1.313358e-03  1.313358e-03  1.313358e-03
-1.735025  1.326348e-03  1.326348e-03  1.326348e-03  1.326348e-03  1.326348e-03  1.326348e-03
-1.733715  1.339408e-03  1.339408e-03  1.339408e-03  1.339408e-03  1.339408e-03  1.339408e-03
